-60.0
-58.0
-56.0
-54.0
-52.0
-50.0
-48.0
-46.0
-44.0
-42.0
-40.0
-38.0
-36.0
-34.0
-32.0
-30.0
-28.0
-26.0
-24.0
-22.0
-20.0
-18.0
-16.0
-14.0
-12.0
-10.0
-8.0
-6.0
-4.0
-2.0
0.0
2.0
4.0
6.0
8.0
10.0
12.0
14.0
16.0
18.0
20.0
22.0
24.0
26.0
28.0
30.0
32.0
34.0
36.0
38.0
40.0
42.0
44.0
46.0
48.0
50.0
52.0
54.0
56.0
