1	0	0.0	0.0	0.0	3
1	1	-60.00	-60.00	 3083.7	 2836.8	 -15.33
2	2	-58.00	-58.00	 3062.6	 2815.8	 -15.33
3	3	-56.00	-56.00	 3114.1	 2867.2	 -15.33
4	4	-54.00	-54.00	 3140.0	 2895.9	 -15.52
5	5	-52.00	-52.00	 3094.9	 2838.6	 -15.15
6	6	-50.00	-50.00	 3212.3	 2947.3	 -15.64
7	7	-48.00	-48.00	 3235.1	 2964.4	 -14.49
8	8	-46.00	-46.00	 3260.4	 2990.4	 -14.13
9	9	-44.00	-44.00	 3268.8	 2999.0	 -14.52
10	10	-42.00	-42.00	 3239.6	 2974.0	 -14.76
11	11	-40.00	-40.00	 3239.7	 2976.1	 -13.95
12	12	-38.00	-38.00	 3284.3	 3024.2	 -14.97
13	13	-36.00	-36.00	 3293.9	 3041.0	 -14.56
14	14	-34.00	-34.00	 3304.6	 3060.7	 -13.27
15	15	-32.00	-32.00	 3338.3	 3100.0	 -13.99
16	16	-30.00	-30.00	 3347.5	 3111.8	 -15.12
17	17	-28.00	-28.00	 3351.0	 3104.5	 -14.69
18	18	-26.00	-26.00	 3359.0	 3108.6	 -14.98
19	19	-24.00	-24.00	 3363.9	 3108.1	 -15.16
20	20	-22.00	-22.00	 3350.0	 3088.4	 -15.10
21	21	-20.00	-20.00	 3344.7	 3076.5	 -14.30
22	22	-18.00	-18.00	 3367.7	 3102.3	 -14.03
23	23	-16.00	-16.00	 3367.3	 3105.9	 -13.33
24	24	-14.00	-14.00	 3371.8	 3101.1	 -13.85
25	25	-12.00	-12.00	 3379.6	 3112.2	 -13.93
26	26	-10.00	-10.00	 3360.9	 3110.0	 -14.33
27	27	-8.00	-8.00	 3362.4	 3116.6	 -13.88
28	28	-6.00	-6.00	 3367.9	 3118.3	 -13.96
29	29	-4.00	-4.00	 3328.6	 3084.7	 -14.22
30	30	-2.00	-2.00	 3366.3	 3129.9	 -14.14
31	31	 0.00	 0.00	 3350.6	 3093.5	 -13.93
32	32	 2.00	 2.00	 3359.7	 3100.3	 -14.40
33	33	 4.00	 4.00	 3358.6	 3102.7	 -14.44
34	34	 6.00	 6.00	 3340.1	 3087.5	 -14.63
35	35	 8.00	 8.00	 3340.0	 3078.2	 -14.53
36	36	10.00	10.00	 3325.1	 3081.1	 -15.08
37	37	12.00	12.00	 3309.4	 3076.2	 -17.44
38	38	14.00	14.00	 3528.5	 3295.5	 -16.56
39	39	16.00	16.00	 3665.2	 3418.4	 -16.26
40	40	18.00	18.00	 3444.8	 3231.7	 -18.69
41	41	20.00	20.00	 3386.2	 3155.6	 -17.84
42	42	22.00	22.00	 3397.1	 3138.9	 -14.70
43	43	24.00	24.00	 3400.5	 3136.8	 -15.75
44	44	26.00	26.00	 3390.1	 3129.2	 -15.20
45	45	28.00	28.00	 3409.2	 3140.0	 -15.68
46	46	30.00	30.00	 3413.6	 3158.5	 -16.44
47	47	32.00	32.00	 3421.9	 3159.2	 -15.29
48	48	34.00	34.00	 3445.3	 3179.3	 -15.38
49	49	36.00	36.00	 3444.1	 3179.2	 -15.49
50	50	38.00	38.00	 3445.0	 3188.2	 -15.68
51	51	40.00	40.00	 3436.1	 3168.4	 -15.24
52	52	42.00	42.00	 3468.5	 3203.2	 -14.74
53	53	44.00	44.00	 3454.8	 3197.1	 -14.82
54	54	46.00	46.00	 3465.9	 3206.3	 -14.53
55	55	48.00	48.00	 3475.6	 3211.0	 -13.96
56	56	50.00	50.00	 3476.9	 3217.5	 -14.49
57	57	52.00	52.00	 3435.4	 3173.8	 -15.05
58	58	54.00	54.00	 3401.5	 3139.9	 -15.05
59	59	56.00	56.00	 3314.1	 3052.6	 -15.05
